Time (min)	Absorb (arb)
0	0.101
30	0.109
60	0.13
90	0.157
120	0.211
150	0.26
180	0.303
210	0.373
240	0.46
270	0.541
300	0.723
330	0.913
360	1.099
390	1.263
420	1.371
450	1.463
480	1.531
510	1.587
540	1.635
570	1.673
600	1.691
630	1.713
660	1.729
690	1.74
720	1.753
750	1.751
780	1.761
810	1.764
840	1.769
870	1.768
900	1.77